# Temperatura_=_20.0
# Concentracion g/m^3_=_18000.0
# C_Vs_to_Am_M_A/Vsm_=_116720831517.84952
# pendiente_HvsI_1/m_=_3716.3
# ordenada_HvsI_A/m_=_1297.0
# frecuencia_Hz_=_269429.59947915154
# Promedio de 24 ciclos

Tiempo_(s)	Campo_(V.s)	Magnetizacion_(V.s)	Campo_(kA/m)	Magnetizacion_(A/m)
0.000000e+00	-7.267671e-09	-1.759601e-08	-5.676464e+01	-2.047332e+03
1.000000e-08	-7.264946e-09	-1.759654e-08	-5.674335e+01	-2.046940e+03
2.000000e-08	-7.260293e-09	-1.758918e-08	-5.670701e+01	-2.046214e+03
3.000000e-08	-7.253884e-09	-1.758621e-08	-5.665695e+01	-2.045155e+03
4.000000e-08	-7.245719e-09	-1.758238e-08	-5.659317e+01	-2.043787e+03
5.000000e-08	-7.235532e-09	-1.757029e-08	-5.651360e+01	-2.042153e+03
6.000000e-08	-7.223127e-09	-1.754618e-08	-5.641671e+01	-2.040312e+03
7.000000e-08	-7.208476e-09	-1.751459e-08	-5.630227e+01	-2.038335e+03
8.000000e-08	-7.191402e-09	-1.758343e-08	-5.616891e+01	-2.036294e+03
9.000000e-08	-7.172066e-09	-1.760199e-08	-5.601789e+01	-2.034257e+03
1.000000e-07	-7.150773e-09	-1.751599e-08	-5.585158e+01	-2.032278e+03
1.100000e-07	-7.127584e-09	-1.749815e-08	-5.567045e+01	-2.030392e+03
1.200000e-07	-7.102434e-09	-1.750938e-08	-5.547402e+01	-2.028612e+03
1.300000e-07	-7.075406e-09	-1.743790e-08	-5.526290e+01	-2.026927e+03
1.400000e-07	-7.046789e-09	-1.727995e-08	-5.503939e+01	-2.025307e+03
1.500000e-07	-7.016488e-09	-1.738444e-08	-5.480272e+01	-2.023703e+03
1.600000e-07	-6.984194e-09	-1.741568e-08	-5.455048e+01	-2.022057e+03
1.700000e-07	-6.949944e-09	-1.734159e-08	-5.428297e+01	-2.020308e+03
1.800000e-07	-6.913782e-09	-1.743799e-08	-5.400052e+01	-2.018399e+03
1.900000e-07	-6.875777e-09	-1.734957e-08	-5.370368e+01	-2.016282e+03
2.000000e-07	-6.835932e-09	-1.734668e-08	-5.339247e+01	-2.013923e+03
2.100000e-07	-6.793988e-09	-1.729083e-08	-5.306485e+01	-2.011303e+03
2.200000e-07	-6.749916e-09	-1.721028e-08	-5.272063e+01	-2.008413e+03
2.300000e-07	-6.703793e-09	-1.722585e-08	-5.236038e+01	-2.005258e+03
2.400000e-07	-6.655580e-09	-1.716864e-08	-5.198380e+01	-2.001845e+03
2.500000e-07	-6.605119e-09	-1.717775e-08	-5.158967e+01	-1.998181e+03
2.600000e-07	-6.552417e-09	-1.709845e-08	-5.117804e+01	-1.994268e+03
2.700000e-07	-6.497803e-09	-1.705775e-08	-5.075147e+01	-1.990097e+03
2.800000e-07	-6.441399e-09	-1.697291e-08	-5.031092e+01	-1.985647e+03
2.900000e-07	-6.383102e-09	-1.690385e-08	-4.985558e+01	-1.980885e+03
3.000000e-07	-6.322875e-09	-1.688364e-08	-4.938518e+01	-1.975771e+03
3.100000e-07	-6.260868e-09	-1.679774e-08	-4.890086e+01	-1.970256e+03
3.200000e-07	-6.197139e-09	-1.678566e-08	-4.840310e+01	-1.964293e+03
3.300000e-07	-6.131616e-09	-1.671904e-08	-4.789133e+01	-1.957844e+03
3.400000e-07	-6.064247e-09	-1.664602e-08	-4.736514e+01	-1.950878e+03
3.500000e-07	-5.995101e-09	-1.655142e-08	-4.682506e+01	-1.943384e+03
3.600000e-07	-5.924304e-09	-1.647943e-08	-4.627209e+01	-1.935367e+03
3.700000e-07	-5.851794e-09	-1.641185e-08	-4.570575e+01	-1.926847e+03
3.800000e-07	-5.777442e-09	-1.633526e-08	-4.512502e+01	-1.917862e+03
3.900000e-07	-5.701159e-09	-1.628021e-08	-4.452920e+01	-1.908457e+03
4.000000e-07	-5.623023e-09	-1.618835e-08	-4.391892e+01	-1.898680e+03
4.100000e-07	-5.543160e-09	-1.611689e-08	-4.329514e+01	-1.888575e+03
4.200000e-07	-5.461636e-09	-1.601264e-08	-4.265839e+01	-1.878179e+03
4.300000e-07	-5.378595e-09	-1.591326e-08	-4.200979e+01	-1.867512e+03
4.400000e-07	-5.294159e-09	-1.581538e-08	-4.135029e+01	-1.856580e+03
4.500000e-07	-5.208403e-09	-1.573064e-08	-4.068048e+01	-1.845370e+03
4.600000e-07	-5.121287e-09	-1.565067e-08	-4.000006e+01	-1.833855e+03
4.700000e-07	-5.032719e-09	-1.555137e-08	-3.930829e+01	-1.821999e+03
4.800000e-07	-4.942686e-09	-1.544523e-08	-3.860508e+01	-1.809758e+03
4.900000e-07	-4.851172e-09	-1.532498e-08	-3.789030e+01	-1.797092e+03
5.000000e-07	-4.758215e-09	-1.520999e-08	-3.716425e+01	-1.783962e+03
5.100000e-07	-4.663934e-09	-1.508912e-08	-3.642786e+01	-1.770343e+03
5.200000e-07	-4.568361e-09	-1.496669e-08	-3.568138e+01	-1.756219e+03
5.300000e-07	-4.471493e-09	-1.485395e-08	-3.492479e+01	-1.741586e+03
5.400000e-07	-4.373343e-09	-1.474059e-08	-3.415818e+01	-1.726450e+03
5.500000e-07	-4.273893e-09	-1.461214e-08	-3.338141e+01	-1.710821e+03
5.600000e-07	-4.173171e-09	-1.446957e-08	-3.259471e+01	-1.694713e+03
5.700000e-07	-4.071249e-09	-1.431766e-08	-3.179865e+01	-1.678133e+03
5.800000e-07	-3.968165e-09	-1.417009e-08	-3.099350e+01	-1.661082e+03
5.900000e-07	-3.863955e-09	-1.402028e-08	-3.017956e+01	-1.643549e+03
6.000000e-07	-3.758662e-09	-1.386686e-08	-2.935716e+01	-1.625513e+03
6.100000e-07	-3.652305e-09	-1.371237e-08	-2.852645e+01	-1.606943e+03
6.200000e-07	-3.544867e-09	-1.355208e-08	-2.768730e+01	-1.587799e+03
6.300000e-07	-3.436375e-09	-1.338587e-08	-2.683991e+01	-1.568042e+03
6.400000e-07	-3.326931e-09	-1.320288e-08	-2.598509e+01	-1.547630e+03
6.500000e-07	-3.216583e-09	-1.301309e-08	-2.512321e+01	-1.526532e+03
6.600000e-07	-3.105293e-09	-1.282522e-08	-2.425397e+01	-1.504725e+03
6.700000e-07	-2.993050e-09	-1.263752e-08	-2.337728e+01	-1.482195e+03
6.800000e-07	-2.879886e-09	-1.244721e-08	-2.249341e+01	-1.458940e+03
6.900000e-07	-2.765840e-09	-1.224416e-08	-2.160265e+01	-1.434966e+03
7.000000e-07	-2.650954e-09	-1.203581e-08	-2.070532e+01	-1.410280e+03
7.100000e-07	-2.535259e-09	-1.182139e-08	-1.980168e+01	-1.384885e+03
7.200000e-07	-2.418782e-09	-1.159645e-08	-1.889193e+01	-1.358778e+03
7.300000e-07	-2.301551e-09	-1.136344e-08	-1.797629e+01	-1.331940e+03
7.400000e-07	-2.183613e-09	-1.112312e-08	-1.705512e+01	-1.304338e+03
7.500000e-07	-2.065021e-09	-1.088509e-08	-1.612885e+01	-1.275920e+03
7.600000e-07	-1.945796e-09	-1.064066e-08	-1.519764e+01	-1.246623e+03
7.700000e-07	-1.825987e-09	-1.038073e-08	-1.426186e+01	-1.216373e+03
7.800000e-07	-1.705683e-09	-1.010812e-08	-1.332221e+01	-1.185093e+03
7.900000e-07	-1.584929e-09	-9.827763e-09	-1.237905e+01	-1.152710e+03
8.000000e-07	-1.463732e-09	-9.543223e-09	-1.143243e+01	-1.119162e+03
8.100000e-07	-1.342102e-09	-9.246160e-09	-1.048244e+01	-1.084402e+03
8.200000e-07	-1.220070e-09	-8.936942e-09	-9.529300e+00	-1.048398e+03
8.300000e-07	-1.097683e-09	-8.620902e-09	-8.573385e+00	-1.011134e+03
8.400000e-07	-9.749853e-10	-8.297533e-09	-7.615047e+00	-9.725987e+02
8.500000e-07	-8.520202e-10	-7.963179e-09	-6.654620e+00	-9.327803e+02
8.600000e-07	-7.288240e-10	-7.609839e-09	-5.692388e+00	-8.916518e+02
8.700000e-07	-6.054288e-10	-7.240706e-09	-4.728601e+00	-8.491593e+02
8.800000e-07	-4.818709e-10	-6.861116e-09	-3.763544e+00	-8.052107e+02
8.900000e-07	-3.581809e-10	-6.469467e-09	-2.797455e+00	-7.596681e+02
9.000000e-07	-2.343826e-10	-6.062422e-09	-1.830520e+00	-7.123447e+02
9.100000e-07	-1.105200e-10	-5.635784e-09	-8.630823e-01	-6.630100e+02
9.200000e-07	1.337410e-11	-5.192506e-09	1.046008e-01	-6.114000e+02
9.300000e-07	1.372762e-10	-4.731080e-09	1.072347e+00	-5.572368e+02
9.400000e-07	2.611392e-10	-4.246463e-09	2.039786e+00	-5.002521e+02
9.500000e-07	3.849123e-10	-3.734553e-09	3.006523e+00	-4.402155e+02
9.600000e-07	5.085601e-10	-3.193153e-09	3.972283e+00	-3.769639e+02
9.700000e-07	6.320643e-10	-2.627601e-09	4.936920e+00	-3.104288e+02
9.800000e-07	7.553921e-10	-2.038172e-09	5.900180e+00	-2.406584e+02
9.900000e-07	8.785060e-10	-1.419402e-09	6.861769e+00	-1.678328e+02
1.000000e-06	1.001391e-09	-7.708722e-10	7.821574e+00	-9.226852e+01
1.010000e-06	1.124011e-09	-9.858265e-11	8.779298e+00	-1.441317e+01
1.020000e-06	1.246317e-09	5.866319e-10	9.734580e+00	6.517132e+01
1.030000e-06	1.368274e-09	1.278336e-09	1.068713e+01	1.458347e+02
1.040000e-06	1.489834e-09	1.973322e-09	1.163658e+01	2.268721e+02
1.050000e-06	1.610957e-09	2.664662e-09	1.258262e+01	3.075615e+02
1.060000e-06	1.731636e-09	3.343015e-09	1.352519e+01	3.872035e+02
1.070000e-06	1.851859e-09	4.002717e-09	1.446420e+01	4.651573e+02
1.080000e-06	1.971567e-09	4.644444e-09	1.539919e+01	5.408713e+02
1.090000e-06	2.090677e-09	5.266501e-09	1.632950e+01	6.139060e+02
1.100000e-06	2.209113e-09	5.861213e-09	1.725456e+01	6.839465e+02
1.110000e-06	2.326847e-09	6.426001e-09	1.817412e+01	7.508044e+02
1.120000e-06	2.443865e-09	6.964989e-09	1.908811e+01	8.144103e+02
1.130000e-06	2.560139e-09	7.480432e-09	1.999627e+01	8.747975e+02
1.140000e-06	2.675656e-09	7.970402e-09	2.089852e+01	9.320804e+02
1.150000e-06	2.790399e-09	8.433679e-09	2.179473e+01	9.864287e+02
1.160000e-06	2.904305e-09	8.873349e-09	2.268439e+01	1.038042e+03
1.170000e-06	3.017315e-09	9.292192e-09	2.356706e+01	1.087128e+03
1.180000e-06	3.129413e-09	9.692463e-09	2.444261e+01	1.133880e+03
1.190000e-06	3.240573e-09	1.007355e-08	2.531083e+01	1.178468e+03
1.200000e-06	3.350802e-09	1.043482e-08	2.617178e+01	1.221032e+03
1.210000e-06	3.460145e-09	1.077820e-08	2.702582e+01	1.261677e+03
1.220000e-06	3.568547e-09	1.110645e-08	2.787250e+01	1.300485e+03
1.230000e-06	3.675918e-09	1.141966e-08	2.871112e+01	1.337515e+03
1.240000e-06	3.782229e-09	1.171647e-08	2.954147e+01	1.372819e+03
1.250000e-06	3.887457e-09	1.199971e-08	3.036336e+01	1.406450e+03
1.260000e-06	3.991579e-09	1.227263e-08	3.117661e+01	1.438465e+03
1.270000e-06	4.094533e-09	1.253514e-08	3.198074e+01	1.468936e+03
1.280000e-06	4.196302e-09	1.278429e-08	3.277561e+01	1.497948e+03
1.290000e-06	4.296871e-09	1.301926e-08	3.356111e+01	1.525597e+03
1.300000e-06	4.396171e-09	1.324369e-08	3.433670e+01	1.551984e+03
1.310000e-06	4.494186e-09	1.346001e-08	3.510225e+01	1.577214e+03
1.320000e-06	4.590905e-09	1.366747e-08	3.585767e+01	1.601380e+03
1.330000e-06	4.686260e-09	1.386431e-08	3.660245e+01	1.624566e+03
1.340000e-06	4.780287e-09	1.405206e-08	3.733686e+01	1.646835e+03
1.350000e-06	4.873042e-09	1.423353e-08	3.806132e+01	1.668234e+03
1.360000e-06	4.964440e-09	1.440861e-08	3.877519e+01	1.688789e+03
1.370000e-06	5.054419e-09	1.457697e-08	3.947798e+01	1.708513e+03
1.380000e-06	5.142965e-09	1.473694e-08	4.016958e+01	1.727409e+03
1.390000e-06	5.230029e-09	1.488838e-08	4.084959e+01	1.745479e+03
1.400000e-06	5.315655e-09	1.503387e-08	4.151838e+01	1.762726e+03
1.410000e-06	5.399893e-09	1.517302e-08	4.217632e+01	1.779165e+03
1.420000e-06	5.482648e-09	1.530548e-08	4.282268e+01	1.794819e+03
1.430000e-06	5.563839e-09	1.543157e-08	4.345683e+01	1.809727e+03
1.440000e-06	5.643408e-09	1.555327e-08	4.407831e+01	1.823939e+03
1.450000e-06	5.721354e-09	1.567299e-08	4.468711e+01	1.837512e+03
1.460000e-06	5.797628e-09	1.578702e-08	4.528285e+01	1.850505e+03
1.470000e-06	5.872113e-09	1.589541e-08	4.586462e+01	1.862973e+03
1.480000e-06	5.944792e-09	1.599827e-08	4.643228e+01	1.874962e+03
1.490000e-06	6.015726e-09	1.609899e-08	4.698631e+01	1.886507e+03
1.500000e-06	6.085012e-09	1.619815e-08	4.752748e+01	1.897625e+03
1.510000e-06	6.152608e-09	1.629235e-08	4.805544e+01	1.908319e+03
1.520000e-06	6.218401e-09	1.638227e-08	4.856931e+01	1.918578e+03
1.530000e-06	6.282379e-09	1.646668e-08	4.906902e+01	1.928386e+03
1.540000e-06	6.344632e-09	1.654664e-08	4.955525e+01	1.937721e+03
1.550000e-06	6.405253e-09	1.662093e-08	5.002873e+01	1.946566e+03
1.560000e-06	6.464139e-09	1.668989e-08	5.048866e+01	1.954913e+03
1.570000e-06	6.521110e-09	1.675504e-08	5.093364e+01	1.962765e+03
1.580000e-06	6.576139e-09	1.681897e-08	5.136344e+01	1.970141e+03
1.590000e-06	6.629193e-09	1.688305e-08	5.177782e+01	1.977070e+03
1.600000e-06	6.680081e-09	1.694404e-08	5.217529e+01	1.983594e+03
1.610000e-06	6.728752e-09	1.700016e-08	5.255543e+01	1.989759e+03
1.620000e-06	6.775419e-09	1.705129e-08	5.291992e+01	1.995612e+03
1.630000e-06	6.820287e-09	1.709783e-08	5.327036e+01	2.001195e+03
1.640000e-06	6.863302e-09	1.714039e-08	5.360634e+01	2.006535e+03
1.650000e-06	6.904274e-09	1.717861e-08	5.392634e+01	2.011650e+03
1.660000e-06	6.943254e-09	1.721382e-08	5.423080e+01	2.016539e+03
1.670000e-06	6.980402e-09	1.724909e-08	5.452095e+01	2.021188e+03
1.680000e-06	7.015658e-09	1.728525e-08	5.479631e+01	2.025573e+03
1.690000e-06	7.048842e-09	1.732075e-08	5.505550e+01	2.029663e+03
1.700000e-06	7.080000e-09	1.735295e-08	5.529885e+01	2.033430e+03
1.710000e-06	7.109310e-09	1.738072e-08	5.552778e+01	2.036849e+03
1.720000e-06	7.136717e-09	1.740487e-08	5.574184e+01	2.039909e+03
1.730000e-06	7.161976e-09	1.742676e-08	5.593913e+01	2.042610e+03
1.740000e-06	7.185074e-09	1.744586e-08	5.611954e+01	2.044970e+03
1.750000e-06	7.206243e-09	1.746178e-08	5.628487e+01	2.047017e+03
1.760000e-06	7.225546e-09	1.747674e-08	5.643564e+01	2.048792e+03
1.770000e-06	7.242785e-09	1.749193e-08	5.657028e+01	2.050336e+03
1.780000e-06	7.257851e-09	1.750652e-08	5.668796e+01	2.051690e+03
1.790000e-06	7.270777e-09	1.751815e-08	5.678891e+01	2.052885e+03
1.800000e-06	7.281413e-09	1.752606e-08	5.687198e+01	2.053940e+03
1.810000e-06	7.289774e-09	1.753170e-08	5.693728e+01	2.054855e+03
1.820000e-06	7.296094e-09	1.753582e-08	5.698664e+01	2.055617e+03
1.830000e-06	7.300493e-09	1.753824e-08	5.702100e+01	2.056197e+03
1.840000e-06	7.302828e-09	1.753815e-08	5.703924e+01	2.056555e+03
1.850000e-06	7.303027e-09	1.753891e-08	5.704078e+01	2.056651e+03
1.860000e-06	7.301302e-09	1.752789e-08	5.702731e+01	2.056447e+03
1.870000e-06	7.297821e-09	1.752056e-08	5.700012e+01	2.055916e+03
1.880000e-06	7.292424e-09	1.751506e-08	5.695797e+01	2.055050e+03
1.890000e-06	7.284978e-09	1.750158e-08	5.689981e+01	2.053858e+03
1.900000e-06	7.275698e-09	1.749065e-08	5.682732e+01	2.052372e+03
1.910000e-06	7.264650e-09	1.749427e-08	5.674103e+01	2.050643e+03
1.920000e-06	7.251576e-09	1.751256e-08	5.663891e+01	2.048736e+03
1.930000e-06	7.236312e-09	1.739256e-08	5.651969e+01	2.046723e+03
1.940000e-06	7.218724e-09	1.733473e-08	5.638231e+01	2.044676e+03
1.950000e-06	7.198505e-09	1.739002e-08	5.622439e+01	2.042656e+03
1.960000e-06	7.175783e-09	1.734736e-08	5.604692e+01	2.040712e+03
1.970000e-06	7.151092e-09	1.729341e-08	5.585406e+01	2.038868e+03
1.980000e-06	7.124778e-09	1.740314e-08	5.564853e+01	2.037130e+03
1.990000e-06	7.097135e-09	1.740894e-08	5.543262e+01	2.035476e+03
2.000000e-06	7.068005e-09	1.725841e-08	5.520510e+01	2.033868e+03
2.010000e-06	7.036743e-09	1.736291e-08	5.496092e+01	2.032253e+03
2.020000e-06	7.003408e-09	1.728536e-08	5.470055e+01	2.030571e+03
2.030000e-06	6.968215e-09	1.728406e-08	5.442568e+01	2.028761e+03
2.040000e-06	6.930903e-09	1.732067e-08	5.413424e+01	2.026770e+03
2.050000e-06	6.891497e-09	1.723044e-08	5.382645e+01	2.024555e+03
2.060000e-06	6.850153e-09	1.735084e-08	5.350354e+01	2.022088e+03
2.070000e-06	6.807073e-09	1.723295e-08	5.316705e+01	2.019355e+03
2.080000e-06	6.762240e-09	1.725142e-08	5.281688e+01	2.016353e+03
2.090000e-06	6.715348e-09	1.722874e-08	5.245063e+01	2.013089e+03
2.100000e-06	6.666424e-09	1.716822e-08	5.206850e+01	2.009571e+03
2.110000e-06	6.615415e-09	1.720499e-08	5.167009e+01	2.005803e+03
2.120000e-06	6.562275e-09	1.710988e-08	5.125503e+01	2.001784e+03
2.130000e-06	6.507063e-09	1.719192e-08	5.082379e+01	1.997499e+03
2.140000e-06	6.449942e-09	1.710087e-08	5.037764e+01	1.992923e+03
2.150000e-06	6.391060e-09	1.710376e-08	4.991774e+01	1.988020e+03
2.160000e-06	6.330364e-09	1.706400e-08	4.944367e+01	1.982744e+03
2.170000e-06	6.267837e-09	1.699425e-08	4.895529e+01	1.977048e+03
2.180000e-06	6.203415e-09	1.699648e-08	4.845212e+01	1.970887e+03
2.190000e-06	6.137210e-09	1.690820e-08	4.793502e+01	1.964225e+03
2.200000e-06	6.069267e-09	1.692297e-08	4.740435e+01	1.957040e+03
2.210000e-06	5.999486e-09	1.681615e-08	4.685931e+01	1.949326e+03
2.220000e-06	5.927870e-09	1.676867e-08	4.629995e+01	1.941096e+03
2.230000e-06	5.854483e-09	1.664966e-08	4.572675e+01	1.932377e+03
2.240000e-06	5.779363e-09	1.656254e-08	4.514003e+01	1.923212e+03
2.250000e-06	5.702439e-09	1.648653e-08	4.453920e+01	1.913645e+03
2.260000e-06	5.623705e-09	1.639710e-08	4.392425e+01	1.903726e+03
2.270000e-06	5.543259e-09	1.634398e-08	4.329592e+01	1.893496e+03
2.280000e-06	5.461276e-09	1.624722e-08	4.265558e+01	1.882985e+03
2.290000e-06	5.377819e-09	1.617196e-08	4.200373e+01	1.872208e+03
2.300000e-06	5.292857e-09	1.605123e-08	4.134012e+01	1.861161e+03
2.310000e-06	5.206396e-09	1.594672e-08	4.066481e+01	1.849828e+03
2.320000e-06	5.118407e-09	1.583003e-08	3.997757e+01	1.838176e+03
2.330000e-06	5.028981e-09	1.573864e-08	3.927910e+01	1.826164e+03
2.340000e-06	4.938190e-09	1.563845e-08	3.856997e+01	1.813751e+03
2.350000e-06	4.845995e-09	1.553369e-08	3.784987e+01	1.800895e+03
2.360000e-06	4.752415e-09	1.541683e-08	3.711895e+01	1.787564e+03
2.370000e-06	4.657464e-09	1.529204e-08	3.637733e+01	1.773736e+03
2.380000e-06	4.561145e-09	1.515837e-08	3.562503e+01	1.759400e+03
2.390000e-06	4.463556e-09	1.502294e-08	3.486279e+01	1.744556e+03
2.400000e-06	4.364754e-09	1.489595e-08	3.409110e+01	1.729213e+03
2.410000e-06	4.264711e-09	1.476832e-08	3.330970e+01	1.713383e+03
2.420000e-06	4.163447e-09	1.464144e-08	3.251877e+01	1.697078e+03
2.430000e-06	4.061021e-09	1.449677e-08	3.171876e+01	1.680302e+03
2.440000e-06	3.957431e-09	1.434173e-08	3.090966e+01	1.663052e+03
2.450000e-06	3.852689e-09	1.417566e-08	3.009157e+01	1.645313e+03
2.460000e-06	3.746867e-09	1.400888e-08	2.926504e+01	1.627059e+03
2.470000e-06	3.640031e-09	1.384554e-08	2.843059e+01	1.608254e+03
2.480000e-06	3.532197e-09	1.368277e-08	2.758833e+01	1.588860e+03
2.490000e-06	3.423387e-09	1.352007e-08	2.673847e+01	1.568835e+03
2.500000e-06	3.313646e-09	1.335281e-08	2.588133e+01	1.548141e+03
2.510000e-06	3.202971e-09	1.317221e-08	2.501689e+01	1.526750e+03
2.520000e-06	3.091348e-09	1.297799e-08	2.414505e+01	1.504642e+03
2.530000e-06	2.978776e-09	1.277081e-08	2.326580e+01	1.481811e+03
2.540000e-06	2.865289e-09	1.256292e-08	2.237941e+01	1.458256e+03
2.550000e-06	2.750903e-09	1.235496e-08	2.148599e+01	1.433985e+03
2.560000e-06	2.635605e-09	1.214610e-08	2.058544e+01	1.409003e+03
2.570000e-06	2.519473e-09	1.193238e-08	1.967839e+01	1.383313e+03
2.580000e-06	2.402618e-09	1.170809e-08	1.876568e+01	1.356905e+03
2.590000e-06	2.285065e-09	1.147246e-08	1.784753e+01	1.329754e+03
2.600000e-06	2.166823e-09	1.122480e-08	1.692399e+01	1.301820e+03
2.610000e-06	2.047910e-09	1.096889e-08	1.599522e+01	1.273045e+03
2.620000e-06	1.928382e-09	1.071056e-08	1.506163e+01	1.243361e+03
2.630000e-06	1.808293e-09	1.044807e-08	1.412367e+01	1.212691e+03
2.640000e-06	1.687669e-09	1.017974e-08	1.318152e+01	1.180961e+03
2.650000e-06	1.566541e-09	9.900994e-09	1.223545e+01	1.148100e+03
2.660000e-06	1.444963e-09	9.608303e-09	1.128585e+01	1.114053e+03
2.670000e-06	1.322992e-09	9.305763e-09	1.033319e+01	1.078779e+03
2.680000e-06	1.200676e-09	8.993012e-09	9.377823e+00	1.042253e+03
2.690000e-06	1.078047e-09	8.672180e-09	8.420021e+00	1.004462e+03
2.700000e-06	9.551196e-10	8.339675e-09	7.459890e+00	9.653954e+02
2.710000e-06	8.319080e-10	7.994569e-09	6.497537e+00	9.250370e+02
2.720000e-06	7.084453e-10	7.638887e-09	5.533222e+00	8.833500e+02
2.730000e-06	5.847780e-10	7.268827e-09	4.567310e+00	8.402661e+02
2.740000e-06	4.609535e-10	6.883336e-09	3.600171e+00	7.956746e+02
2.750000e-06	3.370173e-10	6.480365e-09	2.632158e+00	7.494173e+02
2.760000e-06	2.130103e-10	6.062039e-09	1.663593e+00	7.012885e+02
2.770000e-06	8.896106e-11	5.630391e-09	6.946972e-01	6.510419e+02
2.780000e-06	-3.510039e-11	5.180768e-09	-2.742933e-01	5.984052e+02
2.790000e-06	-1.591407e-10	4.711303e-09	-1.243119e+00	5.431013e+02
2.800000e-06	-2.831356e-10	4.216334e-09	-2.211590e+00	4.848740e+02
2.810000e-06	-4.070412e-10	3.692432e-09	-3.179363e+00	4.235174e+02
2.820000e-06	-5.308006e-10	3.139187e-09	-4.145994e+00	3.589047e+02
2.830000e-06	-6.543834e-10	2.555930e-09	-5.111246e+00	2.910133e+02
2.840000e-06	-7.777704e-10	1.946230e-09	-6.074968e+00	2.199450e+02
2.850000e-06	-9.009244e-10	1.311695e-09	-7.036870e+00	1.459364e+02
2.860000e-06	-1.023802e-09	6.553879e-10	-7.996612e+00	6.935987e+01
2.870000e-06	-1.146365e-09	-1.999660e-11	-8.953901e+00	-9.287137e+00
2.880000e-06	-1.268585e-09	-7.096598e-10	-9.908505e+00	-8.940237e+01
2.890000e-06	-1.390440e-09	-1.405581e-09	-1.086027e+01	-1.703085e+02
2.900000e-06	-1.511890e-09	-2.104857e-09	-1.180886e+01	-2.512889e+02
2.910000e-06	-1.632896e-09	-2.801328e-09	-1.275399e+01	-3.316264e+02
2.920000e-06	-1.753407e-09	-3.486579e-09	-1.369524e+01	-4.106415e+02
2.930000e-06	-1.873378e-09	-4.151775e-09	-1.463228e+01	-4.877273e+02
2.940000e-06	-1.992783e-09	-4.790018e-09	-1.556491e+01	-5.623766e+02
2.950000e-06	-2.111578e-09	-5.401856e-09	-1.649276e+01	-6.342006e+02
